id, roll, pitch, yaw
0,  0.000,  0.000,  0.000
1,  0.027, -0.857, 21.435
2, -0.012, -0.783, 21.715
3, -0.144, -0.705, 21.876
4, -0.266, -0.639, 22.054
5, -0.374, -0.557, 22.230
6, -0.460, -0.531, 22.389
7, -0.554, -0.472, 22.568
8, -0.621, -0.384, 22.755
9, -0.727, -0.252, 22.919
10, -0.834, -0.119, 23.083
11, -0.953,  0.059, 23.238
12, -1.030,  0.167, 23.368
13, -1.120,  0.354, 23.518
14, -1.242,  0.552, 23.635
15, -1.255,  0.646, 23.747
16, -1.267,  0.721, 23.893
17, -1.267,  1.013, 24.033
18, -0.954,  1.310, 24.071
19, -0.801,  1.529, 23.448
20, -0.120,  1.524, 23.103
21,  0.604,  1.713, 22.800
22,  1.577,  2.212, 22.200
23,  4.906,  2.404, 22.418
24,  8.625,  2.067, 22.263
25, 12.623,  1.560, 21.892
26, 15.787,  1.424, 21.031
27, 19.666,  1.391, 20.393
28, 24.667,  1.119, 19.905
29, 30.663,  0.087, 19.321
30, 37.347, -0.694, 18.659
31, 42.990, -1.200, 18.374
32, 48.276, -1.186, 18.101
33, 54.093, -1.163, 17.887
34, 61.317, -1.342, 17.371
35, 68.359, -1.570, 16.761
36, 71.425, -2.161, 16.717
37, 75.118, -2.438, 17.044
38, 80.884, -2.853, 17.256
39, 86.856, -3.380, 16.875
40,-88.269, -4.104, 16.552
41,-84.312, -4.642, 16.050
42,-79.402, -4.762, 15.497
43,-74.417, -4.406, 14.419
44,-71.084, -3.929, 13.450
45,-69.002, -3.827, 12.944
46,-66.401, -3.598, 12.693
47,-63.784, -3.135, 12.515
48,-61.568, -2.218, 12.465
49,-59.962, -1.682, 12.331
50,-58.584, -1.623, 12.248
51,-57.127, -1.813, 12.190
52,-55.511, -1.225, 12.502
53,-53.774, -1.482, 11.844
54,-52.766, -1.189, 12.151
55,-51.928, -0.814, 12.545
56,-50.552, -0.447, 12.523
57,-49.115, -0.217, 11.377
58,-47.460,  1.130,  9.957
59,-46.162,  2.553, 10.331
60,-45.242,  3.126,  9.889
61,-44.605,  3.075, 10.003
62,-44.269,  1.018,  9.631
63,-45.671, -0.968,  9.363
64,-46.751, -3.245,  8.900
65,-83.798,-12.472,-56.629
66, 80.094,-22.182,-66.620
67, 61.989,-35.400,-70.887
68, 47.189,-45.306,-72.998
69, 39.447,-51.993,-73.432
70, 30.774,-58.912,-72.417
71, 26.224,-64.260,-70.948
72, 22.647,-69.612,-69.372
73,  2.030,-81.877,-72.653
74,-31.504, 82.790,-77.113
75,-37.671, 83.035,-77.639
76,-35.085, 83.483,-77.414
77,-35.941, 83.464,-74.789
78,-35.541, 83.007,-72.091
79,-34.491, 86.262,-70.039
80,-34.027, 89.040,-68.793
81,-32.768,-89.312,-67.998
82,-28.814,-87.801,-67.258
83,-25.379,-85.489,-66.742
84,-19.136,-82.340,-66.495
85,-15.960,-85.014,-65.897
86,-12.426,-88.230,-66.121
87, -5.246,-86.394,-66.129
88,  1.852,-86.731,-64.884
89,  8.675,-86.608,-63.294
90, 19.137,-85.386,-61.587
91, 28.843,-84.670,-58.376
92, 38.080,-84.881,-54.435
93, 40.230,-87.642,-50.825
94, 41.318, 89.091,-47.207
95, 42.116, 85.714,-42.182
96, 42.479, 81.448,-37.107
97, 42.855, 77.665,-33.500
98, 43.217, 74.650,-29.627
99, 43.222, 72.225,-26.860
100, 43.872, 70.688,-24.345
101, 43.483, 68.837,-21.703
102, 43.581, 67.028,-18.981
103, 43.446, 65.359,-16.225
104, 42.674, 63.693,-13.876
105, 42.608, 62.317,-11.872
106, 42.250, 60.948,-10.059
107, 41.583, 59.240, -8.191
108, 41.499, 57.979, -6.263
109, 40.709, 57.386, -5.095
110, 39.798, 56.396, -3.414
111, 38.694, 56.340, -0.539
112, 37.388, 55.351,  1.784
113, 35.720, 53.902,  3.550
114, 34.159, 52.640,  4.966
115, 32.932, 51.256,  5.645
116, 31.877, 49.903,  8.405
117, 28.237, 47.734, 12.257
118, 25.108, 43.874, 12.253
119, 23.209, 40.102, 11.049
120, 20.551, 37.042, 12.201
121, 17.097, 34.035, 14.926
122, 13.208, 30.741, 18.085
123,  9.036, 26.887, 21.958
124,  7.831, 24.598, 25.556
125, 10.310, 23.765, 28.812
126, 12.427, 22.252, 32.062
127, 13.540, 19.643, 34.520
128, 14.218, 15.734, 37.781
129, 13.733, 11.968, 41.072
130, 14.935,  9.714, 45.469
131, 14.796,  7.454, 50.215
132, 14.916,  4.571, 55.485
133, 17.275,  0.680, 60.409
134, 23.670, -4.982, 64.154
135, 33.466,-16.095, 66.914
136, 41.548,-29.205, 68.962
137, 51.935,-40.547, 70.392
138, 57.679,-45.170, 72.268
139, 62.290,-48.405, 73.996
140, 67.416,-54.248, 74.979
141, 71.135,-60.262, 74.839
142, 81.781,-68.113, 73.787
143, 89.309,-74.061, 73.135
144,-86.169,-78.360, 72.700
145,-40.522, 40.177, 48.986
146,-39.214, 32.397, 43.629
147,-38.255, 27.891, 39.805
148,-38.095, 24.099, 36.463
149,-38.617, 19.928, 32.719
150,-38.438, 15.169, 28.149
151,-39.269, 11.752, 24.168
152,-41.193,  9.579, 20.534
153,-43.672,  7.889, 16.425
154,-45.719,  7.146, 13.308
155,-47.121,  6.621, 11.146
156,-48.507,  5.776,  8.993
157,-49.664,  4.096,  7.630
158,-50.278,  2.594,  6.662
159,-50.933,  0.344,  3.244
160,-51.441, -3.805, -1.367
161,-54.103, -7.482, -5.707
162,-56.188,-10.191, -8.814
163,-56.930,-12.785,-11.706
164,-58.027,-17.485,-16.009
165,-60.131,-23.646,-20.746
166,-61.416,-27.493,-23.744
167,-63.764,-30.806,-27.219
168,-64.140,-34.126,-29.441
169,-68.922,-40.896,-32.075
170,-72.864,-47.432,-34.108
171,-75.297,-52.615,-33.705
172,-77.695,-58.535,-32.192
173,-81.695,-64.090,-29.883
174,-85.874,-69.242,-29.620
175, 88.457,-76.318,-30.273
176, 87.017,-79.589,-29.680
177, 83.618,-84.387,-28.180
178, 80.431, 89.878,-26.909
179, 74.440, 82.703,-24.258
180, 61.768, 71.207,-17.406
181, 63.175, 62.977,-10.989
182, 60.141, 60.763, -6.968
183, 54.690, 62.013, -6.166
184, 50.482, 59.149, -7.665
185, 49.269, 58.279, -7.292
186, 50.252, 59.622, -6.467
187, 49.271, 60.694, -6.318
188, 47.799, 60.531, -6.693
189, 46.706, 57.463, -5.148
190, 44.420, 54.471, -3.383
191, 43.748, 52.702, -2.042
192, 43.707, 51.527, -0.761
193, 43.196, 50.819, -0.196
194, 42.189, 49.568,  2.227
195, 41.381, 47.976,  5.654
196, 43.791, 44.314, 10.466
197, 46.198, 40.276, 15.160
198, 51.584, 33.456, 18.782
199, 59.797, 23.506, 20.242
200, 68.893, 11.314, 19.813
201, 79.871, -2.581, 18.792
202, 88.530,-15.775, 17.226
203,-85.025,-26.908, 15.959
204,-84.721,-28.251, 18.089
205,-84.914,-29.005, 19.998
206,-85.558,-29.162, 22.432
207,-84.293,-30.350, 24.246
208,-80.830,-35.314, 25.588
209,-75.304,-42.158, 25.974
210,-72.949,-46.175, 26.326
211,-75.105,-47.431, 28.480
212,-73.061,-52.221, 29.865
213,-69.950,-58.777, 31.342
214,-65.831,-65.541, 32.393
215,-64.221,-70.229, 33.341
216,-62.710,-74.373, 33.735
217,-61.029,-79.232, 33.473
218,-58.885,-85.011, 33.080
219,-57.599,-89.905, 33.582
220,-55.942, 85.164, 33.216
221,-54.662, 80.694, 32.656
222,-53.549, 76.457, 31.643
223,-52.647, 72.897, 30.436
224,-52.494, 70.513, 29.473
225,-51.515, 67.492, 28.614
226,-51.347, 65.611, 27.534
227,-51.100, 63.836, 26.290
228,-50.527, 62.566, 25.546
229,-50.408, 61.298, 24.387
230,-51.006, 60.281, 23.455
231,-51.284, 59.309, 22.521
232,-25.468, 50.418,  1.461
233,-21.492, 50.383, -1.657
234,-18.461, 51.566, -3.259
235,-14.993, 51.933, -4.979
236,-12.651, 51.540, -6.965
237,-10.752, 53.429, -8.414
238, -6.039, 55.804,-10.852
239, -3.187, 58.622,-12.453
240,  5.612, 62.216,-14.313
241,  3.997, 60.532,-14.149
242,  7.242, 60.200,-14.295
243,  9.447, 62.254,-12.395
244,  7.508, 60.743,-12.363
245,  5.007, 57.146,-13.159
246,  2.298, 52.685,-15.488
247, -1.757, 49.630,-17.211
248, -6.765, 46.553,-17.906
249,-11.065, 43.152,-20.494
250,-14.109, 39.055,-26.287
251,-16.104, 36.175,-31.881
252,-15.469, 34.935,-38.838
253,-15.962, 32.671,-44.880
254,-16.899, 30.360,-49.601
255,-16.216, 27.295,-55.973
256,-18.372, 22.295,-62.729
257,-21.144, 18.182,-67.921
258,-31.757,  3.637,-72.537
259,-58.463,-27.846,-76.057
260, 88.078,-65.743,-76.744
261, 66.666, 89.609,-75.458
262, 56.100, 77.560,-73.399
263, 51.836, 72.673,-69.477
264, 47.925, 68.996,-66.020
265, 40.223, 64.297,-64.273
266, 33.964, 59.591,-62.780
267, 30.308, 57.180,-60.979
268, 26.974, 56.267,-57.685
269, 23.318, 55.099,-53.441
270, 20.707, 53.049,-49.968
271, 18.780, 52.437,-47.689
272, 18.949, 52.954,-45.176
273, 19.355, 52.866,-42.558
274, 18.838, 51.898,-39.237
275, 18.820, 51.113,-36.432
276, 18.831, 51.082,-35.303
277, 19.851, 51.624,-33.987
278, 20.649, 51.470,-31.868
279, 21.249, 51.287,-29.562
280, 15.862, 52.723,-26.300
281,  9.042, 55.304,-23.279
282,  1.372, 57.872,-20.595
283, -1.883, 57.703,-18.501
284,  0.548, 54.460,-15.356
285, -3.273, 52.351,-10.235
286, -4.796, 50.173, -6.296
287, -5.611, 49.086, -4.609
288, -4.274, 47.391, -2.324
289, -2.826, 45.321,  1.466
290, -3.572, 43.931,  6.203
291, -3.343, 42.935,  9.223
292, -1.372, 41.434, 11.882
293,  1.809, 38.430, 15.919
294,  4.480, 35.753, 20.139
295,  6.470, 34.114, 23.595
296,  6.341, 32.888, 27.949
297,  7.257, 31.255, 32.309
298,  8.168, 29.854, 36.518
299,  8.457, 29.093, 39.845
300,  8.933, 28.022, 43.391
301, 10.229, 26.201, 46.559
302, 11.822, 24.167, 49.492
303, 14.210, 21.426, 52.175
304, 17.654, 18.052, 54.724
305, 20.936, 14.589, 57.878
306, 23.650, 11.687, 60.649
307, 26.600,  9.100, 63.214
308, 30.664,  5.064, 65.886
309, 36.865, -0.844, 67.752
310, 44.873, -7.850, 69.485
311, 55.327,-17.083, 71.356
312, 67.614,-24.905, 70.775
313, 80.197,-38.166, 72.918
314,-59.272, 69.781, 72.269
315,-52.395, 59.433, 70.527
316,-44.354, 48.790, 68.029
317,-39.960, 42.291, 66.493
318,-37.728, 37.642, 65.288
319,-35.302, 33.322, 63.850
320,-33.245, 30.056, 62.441
321,-31.342, 26.983, 60.984
322,-28.299, 23.625, 59.869
323,-27.281, 21.729, 59.438
324,-26.049, 19.613, 59.324
325,-25.642, 17.353, 59.051
326,-24.930, 16.175, 58.003
327,-26.014, 16.672, 56.897
328,-25.217, 17.045, 55.738
329,-23.912, 17.140, 54.259
330,-18.900, 15.167, 49.681
331,-19.236, 15.817, 46.108
332,-18.391, 15.513, 44.781
333,-18.021, 15.516, 43.548
334,-17.335, 14.251, 40.508
335,-16.595, 13.098, 37.834
336,-15.102, 12.381, 34.951
337,-14.300, 11.930, 31.922
338,-13.005, 11.531, 28.614
339,-12.793, 10.792, 26.436
340,-10.858,  9.959, 25.463
341, -8.237,  8.440, 24.368
342, -6.857,  6.798, 21.575
343, -6.116,  4.704, 17.150
344, -2.686,  3.342, 13.271
345,  2.220,  2.957,  9.267
346,  8.165,  5.796,  5.760
347,  7.817,  6.123,  4.173
348,  5.744,  4.251,  0.537
349,  1.010,  2.911, -5.263
350, -3.891,  0.970,-10.175
351, -7.651, -1.039,-12.891
