id, roll, pitch, yaw
0,  0.000,  0.000,  0.000
1, -0.012,  1.054, 13.099
2, -0.075,  1.188, 13.272
3, -0.148,  1.315, 13.459
4, -0.220,  1.431, 13.646
5, -0.319,  1.587, 13.817
6, -0.423,  1.732, 13.971
7, -0.523,  1.839, 14.102
8, -0.656,  1.965, 14.283
9, -0.764,  2.068, 14.460
10, -0.876,  2.184, 14.638
11, -0.981,  2.282, 14.821
12, -1.120,  2.347, 14.973
13, -1.309,  2.377, 15.079
14, -1.518,  2.407, 15.208
15, -1.738,  2.488, 15.372
16, -1.849,  2.617, 15.547
17, -1.959,  2.736, 15.721
18, -2.071,  2.855, 15.894
19, -2.178,  2.982, 16.068
20, -2.297,  3.109, 16.254
21, -2.416,  3.239, 16.431
22, -2.534,  3.379, 16.616
23, -2.628,  3.522, 16.800
24, -2.713,  3.654, 16.982
25, -2.799,  3.801, 17.165
26, -2.899,  3.961, 17.332
27, -3.020,  4.157, 17.502
28, -3.161,  4.376, 17.699
29, -3.231,  4.536, 17.883
30, -3.125,  4.485, 18.025
31, -2.960,  4.192, 18.412
32, -2.844,  3.826, 18.808
33, -2.660,  3.263, 19.795
34, -1.740,  2.399, 20.988
35, -1.125,  1.577, 22.194
36, -0.690,  0.857, 23.370
37,  0.383, -0.197, 24.486
38,  2.210, -1.397, 25.141
39,  4.250, -2.699, 25.839
40,  5.522, -3.915, 26.608
41,  6.100, -5.033, 27.749
42,  7.569, -6.502, 28.664
43,  9.903, -8.581, 29.201
44, 11.791,-10.296, 29.785
45, 13.286,-11.879, 30.510
46, 14.781,-13.567, 31.238
47, 16.814,-15.391, 31.747
48, 18.171,-17.278, 32.137
49, 18.734,-18.967, 32.699
50, 18.618,-20.735, 33.275
51, 19.229,-22.245, 33.474
52, 19.843,-23.382, 33.342
53, 15.855,-24.406, 32.976
54, 12.702,-24.265, 32.068
55,  7.244,-22.916, 30.487
56,  2.628,-20.440, 30.614
57, -4.127,-19.286, 32.243
58, -4.159,-20.789, 33.220
59, -4.448,-23.888, 33.912
60, -6.586,-26.934, 34.835
61, -8.192,-29.744, 36.067
62, -8.809,-32.639, 37.147
63, -4.566,-38.117, 36.800
64, -1.276,-44.193, 36.146
65,  1.770,-50.188, 35.637
66,  1.963,-52.175, 36.444
67,  0.736,-53.923, 37.202
68,  1.651,-56.839, 38.537
69,  3.894,-60.550, 39.996
70, 39.383, 63.855, 24.370
71, 42.449, 60.544, 20.867
72, 43.723, 58.918, 18.514
73, 43.526, 56.080, 16.079
74, 43.147, 52.632, 13.408
75, 42.621, 49.641, 11.401
76, 43.459, 46.029,  9.804
77, 44.057, 43.372,  8.891
78, 44.339, 40.879,  7.003
79, 44.422, 38.215,  5.320
80, 45.354, 35.536,  3.608
81, 46.771, 32.250,  0.632
82, 46.842, 30.777, -1.351
83, 39.007, 29.592, -4.926
84, 34.286, 25.438,-15.921
85, 34.116, 18.753,-28.899
86, 34.584, 14.749,-37.473
87, 31.548,  9.271,-43.703
88, 27.444,  5.957,-43.669
89, 23.727,  3.230,-41.903
90, 21.073,  0.537,-38.901
91, 18.376, -1.911,-36.840
92, 15.019, -4.753,-37.979
93, 11.013, -8.746,-38.621
94,  8.896,-13.113,-37.208
95,  6.539,-18.140,-36.248
96,  3.344,-23.768,-35.967
97,  0.048,-30.107,-35.952
98, -4.158,-34.420,-35.056
99, -5.260,-37.078,-33.950
100, -5.510,-39.230,-32.841
101, -5.012,-41.649,-29.874
102, -7.898,-42.924,-29.911
103,-11.612,-44.565,-30.129
104,-13.445,-46.162,-31.034
105,-14.161,-46.328,-31.081
106,-12.974,-47.271,-30.523
107,-13.795,-48.599,-32.432
108,-15.925,-49.999,-33.575
109,-16.734,-50.975,-30.832
110,-18.056,-51.829,-29.716
111,-20.232,-53.155,-28.494
112,-20.188,-52.142,-28.363
113,-19.503,-54.706,-28.808
114,-20.276,-57.780,-28.928
115,-21.825,-60.725,-28.874
116,-23.628,-63.726,-27.600
117,-25.190,-65.048,-25.474
118,-25.719,-67.268,-23.469
119,-26.088,-69.636,-22.031
120,-27.626,-72.524,-20.701
121,-29.657,-75.354,-19.489
122,-31.907,-78.365,-18.126
123,-33.798,-81.307,-15.734
124,-36.722,-83.899,-12.975
125,-39.543,-86.938, -9.531
126,-43.193,-89.790, -6.427
127,-47.943, 87.475, -3.016
128,-50.142, 83.627, -0.300
129,-53.745, 80.267,  2.893
130,-57.836, 78.761,  6.314
131,-60.025, 76.793,  9.220
132,-61.326, 74.143, 12.445
133,-61.250, 71.161, 15.606
134,-61.635, 68.379, 19.306
135,-62.337, 66.573, 22.748
136,-61.841, 64.000, 25.828
137,-61.778, 61.062, 27.888
138,-58.676, 57.416, 29.473
139,-57.256, 54.949, 30.847
140,-56.574, 52.068, 32.223
141,-53.534, 48.716, 33.354
142,-49.956, 46.475, 34.550
143,-47.266, 43.164, 35.639
144,-46.800, 40.541, 37.809
145,-48.711, 37.937, 40.196
146,-49.049, 34.447, 42.630
147,-48.804, 31.537, 44.792
148,-46.196, 28.238, 46.261
149,-42.048, 24.570, 47.719
150,-26.237, 15.048, 51.204
151,-23.888, 13.448, 52.196
152,-21.555, 11.643, 52.256
153,-19.457,  9.554, 53.188
154,-17.706,  9.152, 54.146
155,-15.133,  7.668, 53.648
156,-12.641,  6.312, 53.349
157,-10.830,  3.780, 53.584
158, -7.861,  1.478, 54.114
159, -5.652, -0.862, 54.330
160, -3.708, -4.146, 55.303
161, -1.786, -7.694, 56.038
162, -0.269, -9.928, 57.169
163,  1.056,-11.639, 57.867
164,  2.360,-13.745, 58.694
165,  2.644,-15.887, 59.718
166,  3.526,-17.923, 60.601
167,  5.571,-19.725, 61.428
168, 10.488,-22.251, 62.695
169, 14.277,-24.791, 63.668
170, 15.825,-26.433, 64.533
171, 14.193,-26.862, 65.758
172, 11.865,-27.557, 66.931
173, 15.706,-34.340, 67.697
174, 17.633,-38.385, 67.749
175, 14.997,-35.251, 66.057
176, 11.460,-32.013, 62.353
177,  9.755,-31.592, 58.975
178,  9.472,-32.865, 58.490
179,  9.124,-34.264, 57.962
180,  9.764,-35.291, 58.099
181,  8.094,-34.067, 57.571
182,  6.427,-32.993, 56.013
183,  6.757,-33.892, 57.230
184,  9.573,-37.144, 58.675
185, 12.883,-42.391, 57.695
186, 17.272,-48.699, 56.627
187, 21.760,-55.601, 55.322
188, 26.429,-62.789, 53.091
189, 31.294,-71.046, 50.607
190, 36.352,-79.195, 47.880
191, 39.359,-85.726, 44.956
192, 42.299, 89.424, 42.295
193, 45.448, 85.262, 39.445
194, 45.198, 81.518, 36.380
195, 48.572, 78.369, 33.594
196, 54.260, 75.903, 30.751
197, 54.230, 74.525, 27.681
198, 57.105, 72.652, 24.006
199, 57.160, 70.666, 20.248
200, 57.847, 69.548, 17.978
201, 56.396, 67.621, 17.603
202, 56.501, 66.160, 17.387
203, 56.556, 64.240, 16.878
204, 57.093, 60.989, 15.201
205, 57.170, 57.504, 14.442
206, 56.163, 55.286, 14.004
207, 56.536, 53.651, 12.373
208, 56.907, 51.889, 10.342
209, 56.911, 49.475,  8.515
210, 57.107, 47.090,  7.324
211, 57.718, 44.903,  6.139
212, 58.010, 42.276,  4.052
213, 58.107, 39.643,  1.775
214, 57.547, 36.461, -0.507
215, 56.900, 33.056, -2.696
216, 55.511, 29.660, -4.561
217, 55.106, 26.692, -6.281
218, 57.678, 20.710, -7.114
219, 54.969, 17.452, -7.675
220, 52.841, 15.481, -9.108
221, 51.642, 14.108,-11.350
222, 50.518, 13.309,-12.288
223, 49.638, 12.357,-12.981
224, 48.794, 11.007,-13.617
225, 47.365,  9.481,-13.363
226, 46.063,  9.011,-13.178
227, 45.291,  8.421,-12.568
228, 44.700,  8.532,-12.317
229, 44.390, 10.042,-13.368
230, 43.671, 13.169,-14.959
231, 67.043,  6.072,-31.951
232, 65.661,  3.589,-32.662
233, 65.645,  0.751,-33.906
234, 68.990, -0.368,-35.035
235, 76.642, -0.534,-35.213
236, 75.855, -1.814,-35.009
237, 75.582, -2.063,-36.649
238, 81.324, -1.566,-37.927
239, 83.485,  0.236,-43.374
240, 79.892, -1.479,-45.663
241, 76.891, -2.703,-46.336
242, 72.834, -4.089,-46.914
243, 66.372, -6.726,-48.009
244, 60.568, -9.227,-48.230
245, 56.129,-11.248,-48.100
246, 52.224,-13.318,-48.368
247, 47.588,-15.946,-49.407
248, 42.600,-18.358,-50.020
249, 41.467,-19.762,-49.619
250, 37.997,-21.665,-47.737
251, 35.942,-22.318,-47.120
252, 35.302,-22.571,-46.776
253, 35.263,-22.795,-47.135
254, 35.826,-21.972,-46.587
255, 37.548,-19.068,-46.211
256, 36.171,-19.714,-47.402
257, 35.230,-20.605,-47.795
258, 34.446,-21.073,-48.815
259, 34.614,-20.950,-49.326
260, 33.780,-21.660,-49.174
261, 31.860,-23.323,-48.272
262, 29.545,-26.058,-47.876
263, 27.706,-28.046,-47.654
264, 24.814,-31.291,-48.505
265, 20.752,-36.277,-49.625
266, 16.241,-41.585,-50.116
267, 12.042,-46.811,-49.939
268,  5.933,-53.463,-48.514
269,  0.570,-59.040,-46.619
270, -4.056,-64.734,-44.314
271, -7.756,-71.475,-40.598
272, -9.681,-77.189,-37.057
273, -9.452,-80.068,-34.155
274, -9.004,-82.000,-31.518
275, -9.546,-82.664,-29.609
276,-10.625,-82.762,-28.151
277, -9.748,-82.449,-27.605
278, -8.965,-82.044,-27.093
279, -8.817,-81.691,-26.626
280, -8.863,-81.910,-26.391
281, -9.069,-82.287,-26.032
282, -9.168,-82.683,-25.791
283, -9.073,-82.939,-24.697
284,-10.205,-83.802,-23.468
285,-12.096,-85.113,-22.307
286,-14.181,-86.039,-21.137
287,-17.664,-87.120,-18.783
288,-20.903,-89.185,-16.211
289,-23.611, 88.511,-14.015
290,-26.193, 86.300,-11.465
291,-28.899, 84.112, -9.148
292,-30.641, 80.861, -7.276
293,-33.135, 76.392, -5.096
294,-33.703, 72.929, -3.146
295,-35.694, 68.974, -1.211
296,-37.587, 65.561,  0.920
297,-39.680, 61.849,  3.518
298,-41.010, 59.262,  5.820
299,-41.595, 57.593,  7.746
300,-41.710, 54.962,  8.557
301,-41.990, 52.196,  9.501
302,-44.465, 49.595,  8.351
303,-45.563, 48.032,  9.397
304,-45.945, 46.717, 10.317
305,-46.113, 44.839, 11.284
306,-45.841, 43.573, 12.539
307,-45.925, 42.345, 13.740
308,-46.481, 41.376, 15.018
309,-46.679, 40.078, 16.423
310,-46.688, 39.050, 17.459
311,-46.350, 38.274, 18.032
312,-46.103, 37.158, 18.362
313,-46.571, 36.311, 19.718
314,-47.132, 36.079, 20.977
315,-47.585, 36.035, 22.245
316,-48.162, 35.841, 23.437
317,-48.557, 35.151, 24.698
318,-47.830, 12.861, 25.545
319,-48.421, 11.380, 25.128
320,-48.616, 10.866, 24.877
321,-47.485,  9.044, 24.941
322,-46.085,  7.157, 25.860
323,-42.967,  4.724, 27.395
324,-36.023,  2.202, 28.974
325,-31.071, -0.505, 31.825
326,-29.139, -4.806, 36.246
327,-24.879, -9.390, 39.011
328,-20.939,-14.542, 40.903
329,-18.607,-19.092, 42.278
330,-14.429,-24.165, 44.326
331, -9.066,-30.502, 46.173
332, -9.528,-35.714, 48.085
333, -9.418,-40.871, 49.967
334, -5.056,-48.622, 51.696
335,  2.294,-55.156, 54.346
336,  2.736,-58.219, 56.537
337,  3.559,-60.306, 57.504
338,  3.555,-60.806, 57.841
339,  3.026,-61.212, 58.318
340, 10.615,-69.870, 59.468
341, 19.299,-79.335, 60.818
342, 25.967,-86.056, 62.299
343, 34.418, 85.775, 63.334
344, 41.164, 77.568, 62.829
345, 40.448, 66.180, 63.983
346, 45.350, 56.725, 62.496
347, 50.272, 48.885, 60.790
348, 55.028, 41.447, 59.096
349, 56.993, 38.153, 56.838
350, 60.938, 32.790, 54.044
